#bin	frequency	peak0	peak1	peak2	peak3	peak4	peak5
0.00000	3.78007285589e-21	3.78007275219e-21	1.03704422612e-28	3.21927207192e-78	2.96888186854e-151	6.88895140581e-252	0.0
0.00050	4.17380055047e-21	4.17380043961e-21	1.1085525933e-28	3.58550275606e-78	3.44550733451e-151	8.34402573616e-252	0.0
0.00100	4.60811471011e-21	4.60811459162e-21	1.18495432823e-28	3.99327044893e-78	3.998524165e-151	1.01061196003e-251	0.0
0.00150	5.08715463082e-21	5.08715450417e-21	1.26658169134e-28	4.44727180216e-78	4.64015572897e-151	1.22399464318e-251	0.0
0.00200	5.61547714429e-21	5.61547700891e-21	1.3537893248e-28	4.95273289073e-78	5.38457799906e-151	1.48238456936e-251	0.0
0.00250	6.19809826026e-21	6.19809811557e-21	1.446955748e-28	5.51546870635e-78	6.24823094588e-151	1.79526489656e-251	0.0
0.00300	6.84053891364e-21	6.84053875899e-21	1.54648495208e-28	6.14194931531e-78	7.25017950904e-151	2.17411482498e-251	0.0
0.00350	7.54887521619e-21	7.54887505091e-21	1.65280810009e-28	6.83937342524e-78	8.41253202453e-151	2.63282928978e-251	0.0
0.00400	8.32979365099e-21	8.32979347435e-21	1.76638533969e-28	7.61575018763e-78	9.76092523863e-151	3.18822680678e-251	0.0
0.00450	9.19065168995e-21	9.19065150118e-21	1.88770773576e-28	8.47999015541e-78	1.13250864865e-150	3.86066396749e-251	0.0
0.00500	1.01395443608e-20	1.0139544159e-20	2.01729933077e-28	9.4420064168e-78	1.31394852914e-150	4.67477895645e-251	0.0
0.00550	1.11853773402e-20	1.11853771246e-20	2.15571934141e-28	1.05128270403e-77	1.5244088585e-150	5.66039115274e-251	0.0
0.00600	1.23379472057e-20	1.23379469753e-20	2.30356450019e-28	1.17047200923e-77	1.76852359965e-150	6.85358954714e-251	0.0
0.00650	1.36080295378e-20	1.36080292916e-20	2.46147155168e-28	1.30313326278e-77	2.05166542713e-150	8.29804956347e-251	0.0
0.00700	1.50074756324e-20	1.50074753694e-20	2.6301199135e-28	1.4507845212e-77	2.38006328939e-150	1.00466261641e-250	0.0
0.00750	1.65493186533e-20	1.65493183723e-20	2.81023451273e-28	1.61511437019e-77	2.76093864899e-150	1.21632811461e-250	0.0
0.00800	1.82478901356e-20	1.82478898353e-20	3.00258880927e-28	1.79800102106e-77	3.20266336326e-150	1.47254146583e-250	0.0
0.00850	2.0118947837e-20	2.01189475162e-20	3.20800801843e-28	2.00153353885e-77	3.71494263685e-150	1.78266856292e-250	0.0
0.00900	2.21798160288e-20	2.21798156861e-20	3.42737254566e-28	2.22803543939e-77	4.30902702103e-150	2.15804235191e-250	0.0
0.00950	2.44495394214e-20	2.44495390552e-20	3.66162164732e-28	2.48009091892e-77	4.99795806346e-150	2.61237552438e-250	0.0
0.01000	2.69490520332e-20	2.69490516421e-20	3.91175733218e-28	2.76057400884e-77	5.79685294087e-150	3.16225970229e-250	0.0
0.01050	2.97013624372e-20	2.97013620193e-20	4.1788485195e-28	3.07268098094e-77	6.72323425018e-150	3.8277692235e-250	0.0
0.01100	3.27317569508e-20	3.27317565044e-20	4.46403547021e-28	3.41996636418e-77	7.79741211086e-150	4.63319142302e-250	0.0
0.01150	3.60680224887e-20	3.60680220119e-20	4.76853450908e-28	3.8063829745e-77	9.0429268618e-150	5.60790988351e-250	0.0
0.01200	3.9740690956e-20	3.97406904466e-20	5.09364305688e-28	4.23632640303e-77	1.04870619456e-149	6.78747266297e-250	0.0
0.01250	4.37833072367e-20	4.37833066926e-20	5.44074499257e-28	4.71468445801e-77	1.21614380893e-149	8.21488419797e-250	0.0
0.01300	4.82327230306e-20	4.82327224494e-20	5.81131636707e-28	5.24689211005e-77	1.41027016459e-149	9.94216766824e-250	0.0
0.01350	5.3129418996e-20	5.31294183753e-20	6.20693149145e-28	5.83899255136e-77	1.63533219927e-149	1.2032254384e-249	0.0
0.01400	5.85178578947e-20	5.85178572318e-20	6.62926942382e-28	6.49770504719e-77	1.89625152362e-149	1.45612685737e-249	0.0
0.01450	6.44468716824e-20	6.44468709744e-20	7.08012088085e-28	7.2305003326e-77	2.19873141952e-149	1.76212902314e-249	0.0
0.01500	7.09700857682e-20	7.0970085012e-20	7.56139560149e-28	8.04568439085e-77	2.54938077886e-149	2.13236959454e-249	0.0
0.01550	7.81463839654e-20	7.81463831579e-20	8.07513019208e-28	8.95249154234e-77	2.95585766018e-149	2.58031984924e-249	0.0
0.01600	8.6040417989e-20	8.60404171267e-20	8.6234964843e-28	9.96118787535e-77	3.42703556324e-149	3.1222731195e-249	0.0
0.01650	9.47231657118e-20	9.47231647909e-20	9.2088104389e-28	1.1083186164e-76	3.97319601046e-149	3.77793535138e-249	0.0
0.01700	1.04272542786e-19	1.04272541803e-19	9.83354163079e-28	1.23311735447e-76	4.60625159027e-149	4.5711391169e-249	0.0
0.01750	1.14774072669e-19	1.14774071619e-19	1.05003233529e-27	1.37192533642e-76	5.34000427249e-149	5.53070685898e-249	0.0
0.01800	1.26321620554e-19	1.26321619433e-19	1.12119633792e-27	1.5263102765e-76	6.19044456408e-149	6.69149452655e-249	0.0
0.01850	1.39018197232e-19	1.39018196035e-19	1.19714554286e-27	1.69801477514e-76	7.17609795144e-149	8.09565325548e-249	0.0
0.01900	1.52976839446e-19	1.52976838168e-19	1.27819913765e-27	1.88897576658e-76	8.31842609057e-149	9.79415460317e-249	0.0
0.01950	1.68321573946e-19	1.68321572581e-19	1.36469742607e-27	2.1013461224e-76	9.6422913824e-149	1.18486343322e-248	0.0
0.02000	1.85188473077e-19	1.8518847162e-19	1.45700321341e-27	2.33751864881e-76	1.11764949303e-148	1.43336212019e-248	0.0
0.02050	2.03726810493e-19	2.03726808937e-19	1.55550328178e-27	2.6001527424e-76	1.29543994512e-148	1.73392310782e-248	0.0
0.02100	2.24100326365e-19	2.24100324705e-19	1.66060996138e-27	2.89220399765e-76	1.50146505334e-148	2.0974423405e-248	0.0
0.02150	2.46488612329e-19	2.46488610556e-19	1.77276280382e-27	3.2169570923e-76	1.74020117409e-148	2.53709372977e-248	0.0
0.02200	2.71088627343e-19	2.71088625451e-19	1.89243036408e-27	3.57806231193e-76	2.01683315046e-148	3.06880489463e-248	0.0
0.02250	2.9811635669e-19	2.9811635467e-19	2.02011209815e-27	3.97957611561e-76	2.3373662561e-148	3.7118321519e-248	0.0
0.02300	3.2780862744e-19	3.27808625284e-19	2.15634038372e-27	4.42600618786e-76	2.70875579656e-148	4.48945544042e-248	0.0
0.02350	3.60425094962e-19	3.6042509266e-19	2.30168267188e-27	4.92236147181e-76	3.1390571484e-148	5.42981816891e-248	0.0
0.02400	3.96250416362e-19	3.96250413905e-19	2.45674377824e-27	5.47420773236e-76	3.63759945369e-148	6.56694217817e-248	0.0
0.02450	4.35596628231e-19	4.35596625609e-19	2.62216832243e-27	6.08772925854e-76	4.21518669293e-148	7.9419542918e-248	0.0
0.02500	4.78805747638e-19	4.78805744839e-19	2.79864332542e-27	6.76979738136e-76	4.88433044448e-148	9.60456851767e-248	0.0
0.02550	5.26252617057e-19	5.2625261407e-19	2.98690097498e-27	7.52804655741e-76	5.65951931539e-148	1.16148771292e-247	0.0
0.02600	5.78348015805e-19	5.78348012617e-19	3.18772156979e-27	8.37095885091e-76	6.55753081126e-148	1.40455149258e-247	0.0
0.02650	6.35542062623e-19	6.35542059221e-19	3.40193665389e-27	9.30795773833e-76	7.59779231835e-148	1.69842743427e-247	0.0
0.02700	6.98327936284e-19	6.98327932653e-19	3.63043235353e-27	1.0349512261e-75	8.80279891878e-148	2.05372652302e-247	0.0
0.02750	7.67245943551e-19	7.67245939677e-19	3.87415292943e-27	1.15072526633e-75	1.01985969711e-147	2.48327326212e-247	0.0
0.02800	8.42887966488e-19	8.42887962354e-19	4.1341045581e-27	1.27940987796e-75	1.18153437904e-147	3.00256693631e-247	0.0
0.02850	9.25902324016e-19	9.25902319605e-19	4.41135935713e-27	1.42244025695e-75	1.36879553821e-147	3.63033889247e-247	0.0
0.02900	1.0169990858e-18	1.01699908109e-18	4.70705966978e-27	1.58141063572e-75	1.58568560602e-147	4.3892258041e-247	0.0
0.02950	1.11695587995e-18	1.11695587492e-18	5.02242262552e-27	1.75809184987e-75	1.83688459471e-147	5.30658303252e-247	0.0
0.03000	1.22662423986e-18	1.2266242345e-18	5.35874499418e-27	1.9544508389e-75	2.12781048613e-147	6.41546720586e-247	0.0
0.03050	1.34693653954e-18	1.34693653382e-18	5.71740835241e-27	2.17267229342e-75	2.46473539975e-147	7.7558231837e-247	0.0
0.03100	1.4789135712e-18	1.4789135651e-18	6.09988458234e-27	2.41518268407e-75	2.85492001608e-147	9.37591787569e-247	0.0
0.03150	1.62367282386e-18	1.62367281736e-18	6.50774172359e-27	2.68467693356e-75	3.3067691191e-147	1.13340721979e-246	0.0
0.03200	1.78243752696e-18	1.78243752001e-18	6.94265020126e-27	2.9841480214e-75	3.83001156999e-147	1.37007530931e-246	0.0
0.03250	1.9565465285e-18	1.9565465211e-18	7.40638945362e-27	3.316919843e-75	4.43590854314e-147	1.65611003897e-246	0.0
0.03300	2.14746508404e-18	2.14746507614e-18	7.90085498516e-27	3.68668367947e-75	5.13749445479e-147	2.00179787868e-246	0.0
0.03350	2.35679663894e-18	2.35679663051e-18	8.42806587185e-27	4.09753867368e-75	5.94985570811e-147	2.41956639792e-246	0.0
0.03400	2.58629569448e-18	2.58629568549e-18	8.99017274752e-27	4.55403675126e-75	6.89045318037e-147	2.92442945406e-246	0.0
0.03450	2.83788185582e-18	2.83788184623e-18	9.58946630169e-27	5.06123247305e-75	7.97949530432e-147	3.53452484768e-246	0.0
0.03500	3.11365516912e-18	3.1136551589e-18	1.02283863216e-26	5.62473835858e-75	9.24036966779e-147	4.27176362963e-246	0.0
0.03550	3.41591286438e-18	3.41591285348e-18	1.09095313128e-26	6.25078627902e-75	1.07001422942e-146	5.16261422132e-246	0.0
0.03600	3.74716763104e-18	3.7471676194e-18	1.16356687348e-26	6.94629558338e-75	1.2390135199e-146	6.23904930872e-246	0.0
0.03650	4.11016756475e-18	4.11016755234e-18	1.24097458911e-26	7.7189486939e-75	1.43465944727e-146	7.53968926385e-246	0.0
0.03700	4.50791793612e-18	4.50791792289e-18	1.32349015152e-26	8.57727498685e-75	1.66114630548e-146	9.111182839e-246	0.0
0.03750	4.94370494522e-18	4.94370493111e-18	1.41144780958e-26	9.530743864e-75	1.92332745762e-146	1.10098743176e-245	0.0
0.03800	5.42112164086e-18	5.42112162581e-18	1.50520349886e-26	1.05898680182e-74	2.22681872042e-146	1.33038164898e-245	0.0
0.03850	5.94409619884e-18	5.94409618279e-18	1.6051362365e-26	1.17663180063e-74	2.57811793803e-146	1.60752011122e-245	0.0
0.03900	6.516922771e-18	6.51692275389e-18	1.71164960489e-26	1.30730493631e-74	2.98474327598e-146	1.94232933421e-245	0.0
0.03950	7.14429513555e-18	7.1442951173e-18	1.82517332995e-26	1.45244436246e-74	3.45539316075e-146	2.34679745383e-245	0.0
0.04000	7.83134339927e-18	7.83134337981e-18	1.94616495987e-26	1.61364647782e-74	4.00013124722e-146	2.8354019419e-245	0.0
0.04050	8.58367402464e-18	8.58367400389e-18	2.07511165069e-26	1.79268328206e-74	4.63060032363e-146	3.42562596307e-245	0.0
0.04100	9.40741347884e-18	9.40741345672e-18	2.21253206542e-26	1.99152162894e-74	5.36026967317e-146	4.13858172336e-245	0.0
0.04150	1.03092558275e-17	1.03092558039e-17	2.35897839396e-26	2.21234458344e-74	6.20472111622e-146	4.99976295569e-245	0.0
0.04200	1.1296514625e-17	1.12965145999e-17	2.51503850122e-26	2.45757511214e-74	7.18197977127e-146	6.03995326638e-245	0.0
0.04250	1.23771794831e-17	1.23771794563e-17	2.68133821179e-26	2.72990236084e-74	8.31289651337e-146	7.29632259114e-245	0.0
0.04300	1.35599777342e-17	1.35599777057e-17	2.85854373947e-26	3.0323108011e-74	9.62159019643e-146	8.81375067405e-245	0.0
0.04350	1.48544416417e-17	1.48544416113e-17	3.04736427099e-26	3.36811255776e-74	1.11359589619e-145	1.06464245244e-244	0.0
0.04400	1.62709816479e-17	1.62709816154e-17	3.24855471346e-26	3.74098326367e-74	1.28882714082e-145	1.28597665074e-244	0.0
0.04450	1.78209661958e-17	1.78209661611e-17	3.46291861594e-26	4.15500182493e-74	1.4915850072e-145	1.55327614276e-244	0.0
0.04500	1.95168087052e-17	1.95168086683e-17	3.69131127595e-26	4.61469452205e-74	1.72618616116e-145	1.87607650828e-244	0.0
0.04550	2.13720623356e-17	2.13720622963e-17	3.93464304264e-26	5.12508391786e-74	1.99762303208e-145	2.26588937956e-244	0.0
0.04600	2.3401523222e-17	2.34015231801e-17	4.19388282888e-26	5.69174309477e-74	2.31166941887e-145	2.73661149749e-244	0.0
0.04650	2.56213429315e-17	2.56213428868e-17	4.47006184534e-26	6.32085579975e-74	2.67500257096e-145	3.30501835389e-244	0.0
0.04700	2.80491509512e-17	2.80491509036e-17	4.76427757053e-26	7.01928313871e-74	3.0953443101e-145	3.99135989201e-244	0.0
0.04750	3.07041880902e-17	3.07041880394e-17	5.07769797156e-26	7.79463753095e-74	3.58162415734e-145	4.82007934262e-244	0.0
0.04800	3.36074517523e-17	3.36074516981e-17	5.4115659912e-26	8.65536471133e-74	4.14416789066e-145	5.82068062112e-244	0.0
0.04850	3.67818541224e-17	3.67818540647e-17	5.76720431805e-26	9.61083465306e-74	4.79491549075e-145	7.02877495539e-244	0.0
0.04900	4.02523943959e-17	4.02523943345e-17	6.14602045743e-26	1.06714423783e-73	5.54767304727e-145	8.48734373889e-244	0.0
0.04950	4.404634628e-17	4.40463462145e-17	6.54951212171e-26	1.18487197285e-73	6.41840390805e-145	1.02482622311e-243	0.0
0.05001	4.81934621013e-17	4.81934620315e-17	6.97927296012e-26	1.31554592809e-73	7.42556517409e-145	1.23741379262e-243	0.0
0.05051	5.2726194969e-17	5.27261948946e-17	7.43699864922e-26	1.46058517293e-73	8.59049659027e-145	1.49405285032e-243	0.0
0.05101	5.76799405655e-17	5.76799404863e-17	7.92449336638e-26	1.62156381833e-73	9.93786997623e-145	1.80386176482e-243	0.0
0.05151	6.30933002757e-17	6.30933001912e-17	8.44367667031e-26	1.8002279005e-73	1.14962086053e-144	2.17784431691e-243	0.0
0.05201	6.90083675064e-17	6.90083674164e-17	8.99659081388e-26	1.99851409691e-73	1.32984873987e-144	2.62927912716e-243	0.0
0.05251	7.54710392125e-17	7.54710391167e-17	9.58540851614e-26	2.21857047305e-73	1.53828264884e-144	3.17418943205e-243	0.0
0.05301	8.2531354814e-17	8.25313547118e-17	1.02124412222e-25	2.46277947953e-73	1.77932926474e-144	3.83190976834e-243	0.0
0.05351	9.02438648754e-17	9.02438647666e-17	1.08801478811e-25	2.73378344269e-73	2.05808253338e-144	4.6257695349e-243	0.0
0.05401	9.86680321248e-17	9.86680320089e-17	1.15911442743e-25	3.03451281826e-73	2.38043066921e-144	5.58391751154e-243	0.0
0.05451	1.07868667602e-16	1.07868667479e-16	1.23482129278e-25	3.36821750658e-73	2.753179785e-144	6.74031636997e-243	0.0
0.05501	1.17916404973e-16	1.17916404842e-16	1.31543136467e-25	3.73850155994e-73	3.184196731e-144	8.13594218644e-243	0.0
0.05551	1.2888821629e-16	1.2888821615e-16	1.40125947067e-25	4.14936164828e-73	3.68257412323e-144	9.82023116759e-243	0.0
0.05601	1.40867972777e-16	1.40867972628e-16	1.49264047481e-25	4.60522968896e-73	4.25882100158e-144	1.18528244838e-242	0.0
0.05651	1.53947054498e-16	1.53947054339e-16	1.58993054115e-25	5.11102008968e-73	4.92508309134e-144	1.43056725699e-242	0.0
0.05701	1.68225013114e-16	1.68225012944e-16	1.69350847639e-25	5.67218210225e-73	5.69539725644e-144	1.72655728702e-242	0.0
0.05751	1.83810292276e-16	1.83810292095e-16	1.80377715632e-25	6.29475783816e-73	6.58598544282e-144	2.08372302109e-242	0.0
0.05801	2.00821010591e-16	2.00821010399e-16	1.92116504126e-25	6.98544655617e-73	7.61559422967e-144	2.51469473141e-242	0.0
0.05851	2.19385812511e-16	2.19385812306e-16	2.04612778609e-25	7.75167589785e-73	8.80588705282e-144	3.03470750607e-242	0.0
0.05901	2.39644792948e-16	2.3964479273e-16	2.17914995055e-25	8.60168081921e-73	1.01818972561e-143	3.66213787373e-242	0.0
0.05951	2.61750501905e-16	2.61750501673e-16	2.32074681622e-25	9.5445910473e-73	1.17725513878e-143	4.41915085968e-242	0.0
0.06001	2.85869035939e-16	2.85869035692e-16	2.4714663166e-25	1.05905279792e-72	1.36112736148e-143	5.33248017401e-242	0.0
0.06051	3.12181223841e-16	3.12181223578e-16	2.63189108723e-25	1.17507120398e-72	1.5736683805e-143	6.43436889406e-242	0.0
0.06101	3.40883914554e-16	3.40883914274e-16	2.80264064351e-25	1.30375816228e-72	1.81934037707e-143	7.76370362084e-242	0.0
0.06151	3.72191375981e-16	3.72191375682e-16	2.98437369371e-25	1.4464924861e-72	2.10329883998e-143	9.36738185858e-242	0.0
0.06201	4.06336814111e-16	4.06336813793e-16	3.17779059587e-25	1.60480256048e-72	2.43150009868e-143	1.13019605241e-241	0.0
0.06251	4.43574022628e-16	4.43574022289e-16	3.38363596712e-25	1.78038251363e-72	2.81082550558e-143	1.36356433227e-241	0.0
0.06301	4.84179174043e-16	4.84179173683e-16	3.60270145503e-25	1.97511013074e-72	3.24922484067e-143	1.64506765716e-241	0.0
0.06351	5.28452764304e-16	5.2845276392e-16	3.83582868081e-25	2.19106669765e-72	3.75588190869e-143	1.98462373238e-241	0.0
0.06401	5.76721723811e-16	5.76721723403e-16	4.08391236503e-25	2.43055898118e-72	4.34140575724e-143	2.39419148414e-241	0.0
0.06451	6.29341708876e-16	6.29341708441e-16	4.34790364688e-25	2.69614357574e-72	5.01805147267e-143	2.88819071857e-241	0.0
0.06501	6.86699588778e-16	6.86699588315e-16	4.62881360909e-25	2.99065386985e-72	5.79997512092e-143	3.48400796524e-241	0.0
0.06551	7.49216144871e-16	7.49216144378e-16	4.92771702093e-25	3.3172299137e-72	6.70352810413e-143	4.20260618558e-241	0.0
0.06601	8.17348999511e-16	8.17348998987e-16	5.24575631273e-25	3.6793514987e-72	7.74759701636e-143	5.06925964917e-241	0.0
0.06651	8.91595794083e-16	8.91595793525e-16	5.58414579609e-25	4.08087479325e-72	8.95399601858e-143	6.11443964598e-241	0.0
0.06701	9.72497636947e-16	9.72497636352e-16	5.9441761448e-25	4.52607291589e-72	1.03479198348e-142	7.37488196017e-241	0.0
0.06751	1.06064284389e-15	1.06064284325e-15	6.32721915253e-25	5.01968086727e-72	1.19584667181e-142	8.89487336482e-241	0.0
0.06801	1.15667099546e-15	1.15667099478e-15	6.73473278401e-25	5.56694528799e-72	1.38192421756e-142	1.07278020266e-240	0.0
0.06851	1.26127733764e-15	1.26127733693e-15	7.1682665378e-25	6.17367955845e-72	1.59690559007e-142	1.29380258988e-240	0.0
0.06901	1.37521755444e-15	1.37521755367e-15	7.62946713965e-25	6.84632481265e-72	1.84527262773e-142	1.5603124252e-240	0.0
0.06951	1.49931294321e-15	1.4993129424e-15	8.12008458657e-25	7.59201749832e-72	2.13220090301e-142	1.88166108216e-240	0.0
0.07001	1.63445602637e-15	1.63445602551e-15	8.64197856306e-25	8.41866418327e-72	2.46366691447e-142	2.26912031122e-240	0.0
0.07051	1.78161663545e-15	1.78161663453e-15	9.19712525217e-25	9.33502438286e-72	2.8465718121e-142	2.73627617388e-240	0.0
0.07101	1.94184850675e-15	1.94184850577e-15	9.78762456544e-25	1.03508022652e-71	3.28888420159e-142	3.29950369745e-240	0.0
0.07151	2.11629643087e-15	2.11629642983e-15	1.04157078173e-24	1.14767481831e-71	3.79980496422e-142	3.97853877292e-240	0.0
0.07201	2.30620400186e-15	2.30620400075e-15	1.10837458707e-24	1.27247710809e-71	4.38995748062e-142	4.79716719631e-240	0.0
0.07251	2.51292201545e-15	2.51292201427e-15	1.17942577832e-24	1.41080629389e-71	5.07160716666e-142	5.78405482205e-240	0.0
0.07301	2.7379175698e-15	2.73791756855e-15	1.25499199833e-24	1.5641236538e-71	5.85891483039e-142	6.97374769549e-240	0.0
0.07351	2.98278392669e-15	2.98278392535e-15	1.33535760099e-24	1.73404779666e-71	6.76822905106e-142	8.40787693088e-240	0.0
0.07401	3.24925119538e-15	3.24925119396e-15	1.42082468477e-24	1.92237154426e-71	7.81842357957e-142	1.01366102037e-239	0.0
0.07451	3.53919790698e-15	3.53919790547e-15	1.51171418974e-24	2.13108061872e-71	9.03128668066e-142	1.22204002789e-239	0.0
0.07501	3.85466355199e-15	3.85466355038e-15	1.60836706158e-24	2.3623743278e-71	1.04319703986e-141	1.47320912947e-239	0.0
0.07551	4.19786216e-15	4.19786215829e-15	1.71114548692e-24	2.61868846062e-71	1.20495089532e-141	1.77594559179e-239	0.0
0.07601	4.57119700672e-15	4.5711970049e-15	1.82043420417e-24	2.90272062946e-71	1.39174168833e-141	2.14082514183e-239	0.0
0.07651	4.97727654022e-15	4.97727653828e-15	1.93664189452e-24	3.21745831797e-71	1.60743791854e-141	2.58059006742e-239	0.0
0.07701	5.41893162597e-15	5.41893162391e-15	2.06020265779e-24	3.5662099238e-71	1.85650475694e-141	3.11059257638e-239	0.0
0.07751	5.89923421782e-15	5.89923421563e-15	2.19157757852e-24	3.95263911423e-71	2.14409591205e-141	3.74932878378e-239	0.0
0.07801	6.42151757097e-15	6.42151756864e-15	2.3312563875e-24	4.38080284728e-71	2.47615961493e-141	4.51908183239e-239	0.0
0.07851	6.98939812204e-15	6.98939811956e-15	2.47975922467e-24	4.85519344785e-71	2.85956088909e-141	5.44669642593e-239	0.0
0.07901	7.60679917146e-15	7.60679916882e-15	2.63763850938e-24	5.38078517004e-71	3.30222260312e-141	6.56451159784e-239	0.0
0.07951	8.27797651404e-15	8.27797651124e-15	2.8054809247e-24	5.96308572212e-71	3.81328818596e-141	7.91148400702e-239	0.0
0.08001	9.00754617533e-15	9.00754617235e-15	2.98390952234e-24	6.60819328153e-71	4.40330932608e-141	9.53454063478e-239	0.0
0.08051	9.80051442367e-15	9.8005144205e-15	3.17358595578e-24	7.32285958252e-71	5.08446248351e-141	1.14902076798e-238	0.0
0.08101	1.06623102416e-14	1.06623102382e-14	3.37521284906e-24	8.1145597213e-71	5.87079862984e-141	1.38465719839e-238	0.0
0.08151	1.15988204545e-14	1.1598820451e-14	3.58953630958e-24	8.99156939122e-71	6.77853130651e-141	1.66856427988e-238	0.0
